T[K],M[A/m],M^2,M^4,U_Binder,chi,C_v(tot),E,E_exc,E_lsf
20,1160762.1515272781,2.62223047,6.87609298,0.666666651,9.08178241e-05,1.07146737,-12.1969342,-12.1969342,0.0
40,1152764.5400310007,2.58622084,6.68853899,0.66666663,0.000105410547,1.03101353,-12.0692392,-12.0692392,0.0
60,1144332.380219765,2.54852466,6.49498311,0.666666403,0.000497827757,1.03450439,-11.9409203,-11.9409203,0.0
80,1136095.4237953024,2.51196828,6.30999328,0.666666212,0.000634009994,0.961009915,-11.8118578,-11.8118578,0.0
100,1128134.3770932353,2.47688648,6.13496963,0.666666504,0.000178664692,1.09274195,-11.6819371,-11.6819371,0.0
120,1119860.3612713865,2.44068773,5.95696177,0.666666378,0.000260224173,1.01321347,-11.5513931,-11.5513931,0.0
140,1111776.4379368254,2.40557811,5.78681408,0.666666202,0.000353990257,1.06215751,-11.4200301,-11.4200301,0.0
160,1102918.5036408827,2.36739927,5.60459399,0.666665793,0.000573992009,1.00444321,-11.2877473,-11.2877473,0.0
180,1094392.0179862808,2.3309368,5.4332805,0.666665798,0.000499209259,1.03868629,-11.1546364,-11.1546364,0.0
200,1085670.0637229132,2.29393091,5.26212997,0.666665973,0.000352951322,1.05591983,-11.0205927,-11.0205927,0.0
220,1076778.8189782947,2.2565119,5.09185705,0.666665939,0.000331141033,1.08551918,-10.8855566,-10.8855566,0.0
240,1067425.2851318931,2.21748124,4.91725035,0.666664815,0.000759211968,1.03630792,-10.7498302,-10.7498302,0.0
260,1057970.9740963522,2.17837615,4.74536581,0.666663634,0.00112822426,1.06543553,-10.6127877,-10.6127877,0.0
280,1048538.2105556937,2.13970498,4.5783794,0.666663608,0.00103726667,1.03107034,-10.4747009,-10.4747009,0.0
300,1039913.8221449027,2.10464972,4.42958084,0.666664379,0.000712591143,1.13059905,-10.3354817,-10.3354817,0.0
320,1029517.0770143275,2.06277847,4.25509813,0.666663289,0.000966105203,1.06584067,-10.1948398,-10.1948398,0.0
340,1019718.1996010401,2.0236984,4.09539542,0.666663396,0.000863896701,1.08377225,-10.0536223,-10.0536223,0.0
360,1010212.4068262292,1.98614512,3.94481598,0.666662987,0.000900732936,1.12965537,-9.9104157,-9.9104157,0.0
380,1000827.0176680317,1.94941405,3.8002735,0.666661545,0.00116692089,1.09167,-9.76598201,-9.76598201,0.0
400,990071.556207981,1.9077389,3.63951418,0.666662411,0.000901130654,1.10953891,-9.62023584,-9.62023584,0.0
420,977847.7971225987,1.86093142,3.46317622,0.666656035,0.00209297288,1.0946676,-9.472641,-9.472641,0.0
440,967365.0340483808,1.82124414,3.31702215,0.666657427,0.00169797613,1.18173157,-9.3239375,-9.3239375,0.0
460,957943.7467350367,1.78594009,3.18965508,0.666659029,0.00131709026,1.2259052,-9.17294675,-9.17294675,0.0
480,945368.0882422123,1.73936913,3.02555778,0.66664983,0.00271363668,1.26199706,-9.02041128,-9.02041128,0.0
500,933306.336785519,1.69528145,2.87421645,0.66663915,0.00415455833,1.28595269,-8.86611112,-8.86611112,0.0
520,924042.8063808151,1.66177402,2.76157935,0.66665623,0.00148071254,1.2810421,-8.70951017,-8.70951017,0.0
540,911156.5370934975,1.61577285,2.61095937,0.666636348,0.00404703311,1.24183154,-8.55161779,-8.55161779,0.0
560,898923.208511885,1.57265686,2.47334981,0.666653163,0.00168701784,1.19812081,-8.39099558,-8.39099558,0.0
580,886959.8687508807,1.53107684,2.34429677,0.666652378,0.00167697381,1.27452202,-8.22880989,-8.22880989,0.0
600,874610.1865641675,1.48873815,2.21644074,0.666651709,0.00164727381,1.36245013,-8.06313058,-8.06313058,0.0
620,859777.503248105,1.43868802,2.07001428,0.666635896,0.00318849359,1.35311115,-7.89614257,-7.89614257,0.0
640,846674.7339648005,1.39515894,1.9465778,0.666647944,0.00181347772,1.49639136,-7.72595448,-7.72595448,0.0
660,833341.8523459284,1.35157355,1.82690092,0.66663932,0.00248645884,1.43365203,-7.55371066,-7.55371066,0.0
680,817215.3659713753,1.29979358,1.6897264,0.666614764,0.0044134093,1.43193314,-7.37963473,-7.37963473,0.0
700,802915.5566480168,1.25467754,1.57433167,0.666642118,0.00195299531,1.55100462,-7.20254709,-7.20254709,0.0
720,788770.8376770456,1.21086119,1.46629663,0.66664125,0.00189918962,1.44062814,-7.02143858,-7.02143858,0.0
740,767322.5501562397,1.14594385,1.31346502,0.666596175,0.00485743249,1.49888485,-6.83869678,-6.83869678,0.0
760,749504.3703885531,1.09342776,1.19621016,0.666492165,0.0112400544,1.6205935,-6.65202738,-6.65202738,0.0
780,733715.2535571285,1.04777216,1.09810276,0.666582788,0.00500910345,1.49421751,-6.46247119,-6.46247119,0.0
800,716555.5726879387,0.999313587,0.998789844,0.666612526,0.00300324548,1.54669161,-6.26960025,-6.26960025,0.0
820,695546.6655400754,0.941617355,0.886947893,0.666552134,0.00586812251,1.52033852,-6.07183662,-6.07183662,0.0
840,675931.6942220808,0.889244779,0.790983659,0.666570817,0.00451510393,1.64492819,-5.87215121,-5.87215121,0.0
860,650394.9666717796,0.823342956,0.678155528,0.666537883,0.00548195087,1.70605112,-5.66636184,-5.66636184,0.0
880,623964.1557125655,0.757929688,0.575112159,0.666286744,0.0146882813,1.70706055,-5.45685984,-5.45685984,0.0
900,595267.1547182179,0.689796857,0.476312927,0.666321142,0.0117913399,1.70205259,-5.2404939,-5.2404939,0.0
920,574337.7138139565,0.642116682,0.412672155,0.666376982,0.00901885636,1.83239613,-5.020226,-5.020226,0.0
940,540677.0187090641,0.569230289,0.324697134,0.665973288,0.0187799252,1.83668391,-4.79003979,-4.79003979,0.0
960,506480.06838946656,0.499472547,0.249932678,0.666052234,0.0143453179,1.68860699,-4.55477345,-4.55477345,0.0
980,465749.379292539,0.422444579,0.178916299,0.665813294,0.0164771708,2.06239208,-4.30984879,-4.30984879,0.0
1000,419581.9439880851,0.342939566,0.118031089,0.665466224,0.0186540037,2.23728614,-4.05277933,-4.05277933,0.0
1020,363556.91470519727,0.25775056,0.0669578849,0.664044902,0.0299217454,2.10561273,-3.78036954,-3.78036954,0.0
1040,283780.87532888877,0.157775875,0.0255222187,0.658244137,0.0595046593,2.40217638,-3.48766915,-3.48766915,0.0
1060,116330.76590290079,0.0292970183,0.00116181804,0.548799037,0.165121179,2.63141666,-3.16236471,-3.16236471,0.0
1080,45920.08375439242,0.00490092869,4.0337278e-05,0.440205579,0.0436480923,1.4300291,-2.93467048,-2.93467048,0.0
1100,28204.38382935804,0.00182171052,5.42033291e-06,0.455565077,0.0147066452,1.15480788,-2.77871715,-2.77871715,0.0
1120,22252.026856963927,0.00113876282,2.20428024e-06,0.433396839,0.00924603582,0.900676277,-2.65356156,-2.65356156,0.0
1140,18336.064488576154,0.000767384611,9.73885297e-07,0.448735047,0.00586493688,0.805087973,-2.54597577,-2.54597577,0.0
1160,16018.356371591299,0.000590047998,5.94831863e-07,0.430494022,0.00462311432,0.701047609,-2.44875572,-2.44875572,0.0
1180,14232.773604474278,0.000465561118,3.6111947e-07,0.444637891,0.00357437047,0.600779123,-2.36330813,-2.36330813,0.0
1200,13649.496895921555,0.000425438137,2.98084568e-07,0.451034057,0.00309727154,0.570134658,-2.28483046,-2.28483046,0.0
1220,12290.856952231034,0.000345735388,1.96398624e-07,0.452316674,0.00250783425,0.550550139,-2.21402343,-2.21402343,0.0
1240,11386.305087895276,0.000293145579,1.38874116e-07,0.461316894,0.00194715144,0.521430113,-2.14807961,-2.14807961,0.0
1260,10781.614355635964,0.000264821683,1.1428764e-07,0.456786031,0.00181130484,0.507252701,-2.08639571,-2.08639571,0.0
1280,10306.540191844237,0.000241164291,9.34814886e-08,0.464230041,0.00159081572,0.428389709,-2.02980951,-2.02980951,0.0
1300,9665.938831836247,0.000215623391,7.82020836e-08,0.439332571,0.00153719848,0.428406661,-1.97562972,-1.97562972,0.0
1320,9395.092340648269,0.000202593797,6.99221658e-08,0.432139933,0.00138029733,0.358572958,-1.92672556,-1.92672556,0.0
1340,8975.25861353735,0.000184774,5.76389381e-08,0.437253249,0.00123568567,0.351150878,-1.87958948,-1.87958948,0.0
1360,8438.063437752842,0.000165639059,4.80805734e-08,0.415852024,0.00117708888,0.339345878,-1.83518023,-1.83518023,0.0
1380,8343.593729376009,0.000160792542,4.48316846e-08,0.421994459,0.0010845574,0.342614764,-1.79254664,-1.79254664,0.0
1400,8102.7052808734015,0.000151665541,3.92632541e-08,0.431027605,0.00100921653,0.282359151,-1.75264417,-1.75264417,0.0
1420,7747.898466936363,0.000138228494,3.24187174e-08,0.434439039,0.000891221015,0.295586545,-1.71398634,-1.71398634,0.0
1440,7593.111901253035,0.000131767017,2.90699786e-08,0.441902565,0.000803271605,0.289415864,-1.67828737,-1.67828737,0.0
1460,7321.3568455353325,0.000121984934,2.44480745e-08,0.452340011,0.000715547104,0.247108929,-1.6435543,-1.6435543,0.0
1480,7307.022743725107,0.000123228054,2.56316542e-08,0.437352753,0.000771858434,0.258258937,-1.61070332,-1.61070332,0.0
1500,7047.922511681028,0.000114434105,2.245116e-08,0.428512707,0.000700244548,0.238267508,-1.57879951,-1.57879951,0.0
1520,7129.1648394468675,0.000117024895,2.36794432e-08,0.423640165,0.000704617879,0.225577606,-1.54888738,-1.54888738,0.0
1540,6674.613116207712,0.000102447102,1.77170022e-08,0.43730944,0.00060459209,0.229531587,-1.51990246,-1.51990246,0.0
1560,6599.177264859741,0.000100011313,1.66453386e-08,0.445280895,0.000578377404,0.205854657,-1.49269641,-1.49269641,0.0
1580,6616.13202518179,0.000100387764,1.6655246e-08,0.449105753,0.000568824731,0.200311407,-1.4658997,-1.4658997,0.0
1600,12484.210164717862,0.000363277228,2.29318946e-07,0.420781623,0.00221601471,0.551954609,-1.44052292,-1.44052292,0.0
